Wavenumber,Intensity
66.4034,0.05901034608317746
67.1936,0.07892295230733654
67.9837,0.11092765212113473
68.7738,0.1454393544065687
69.5637,0.17638765821272917
70.3534,0.20180988187505627
71.1431,0.22195626617474348
71.9327,0.2375717566655591
72.7221,0.24888996561409749
73.5115,0.2555285936002373
74.3007,0.2575473690660442
75.0898,0.2565801988382675
75.8788,0.25526812692983525
76.6677,0.25524829084727385
77.4565,0.2563103286780423
78.2451,0.2578163190109955
79.0337,0.260058558035154
79.8221,0.2636869051662137
80.6105,0.26868356606657023
81.3987,0.2744854864560101
82.1868,0.2805447509680861
82.9748,0.2864571448639365
83.7627,0.29188122174876147
84.5504,0.29604496481501535
85.3381,0.29734880151516113
86.1257,0.29459747318894763
86.9131,0.2889817133305527
87.7004,0.28380767668416834
88.4876,0.2815814595803669
89.2747,0.28167115920991
90.0617,0.2815176883733938
90.8486,0.2802252409720209
91.6354,0.279939149018712
92.422,0.28328586889172624
93.2086,0.2907134056484943
93.995,0.30065360443682315
94.7814,0.31082600221643203
95.5676,0.319028068641922
96.3537,0.32414300406974295
97.1397,0.32688319845918606
97.9255,0.3289500411486103
98.7113,0.3316446459789222
99.497,0.3357484111141593
100.283,0.3422009828906559
101.068,0.35181195661255577
101.853,0.3641496579870916
102.639,0.3775028333524052
103.424,0.3904894049397764
104.209,0.4035043772073665
104.993,0.41821851829902296
105.778,0.4356658445269117
106.563,0.4552029669175671
107.347,0.4754971309533155
108.132,0.49580398442671114
108.916,0.5155721702812864
109.7,0.5335772512716245
110.485,0.5489268357709441
111.269,0.5627688396009538
112.052,0.5773491216576646
112.836,0.5926322834524941
113.62,0.6043662148332252
114.403,0.6059218406590954
115.187,0.5919413367638413
115.97,0.5607344535433668
116.753,0.5146314056648729
117.537,0.4589948081027018
118.32,0.40034962748317676
119.102,0.3443077034073909
119.885,0.2941087108489893
120.668,0.25005961299146584
121.451,0.21018549923922422
122.233,0.17219964009431196
123.015,0.13554307523766868
123.798,0.10181151528922507
124.58,0.07363089507157626
125.362,0.053394161351843474
126.144,0.04233678747691933
126.925,0.03980454233214688
127.707,0.04321016553019899
128.489,0.04911377547657168
129.27,0.05481897860155912
130.051,0.05921439677757349
130.833,0.062297098738987346
131.614,0.06443492136342724
132.395,0.0663964430496477
133.176,0.06961285944183222
133.957,0.07586838025749222
134.737,0.08682633994332539
135.518,0.10381649906134205
136.298,0.12723263494311035
137.079,0.15529683925695362
137.859,0.1842312425642122
138.639,0.2115680034252702
139.419,0.23993373022320985
140.199,0.2762913497594717
140.979,0.32662712089457085
141.759,0.39159938244496484
142.538,0.4662627510951066
143.318,0.5415790262312109
144.097,0.6058073020368009
144.876,0.6469413778558063
145.656,0.6565559065779419
146.435,0.6329250319490469
147.214,0.5814946944017835
147.993,0.5130033352083162
148.771,0.4403223923134924
149.55,0.3745195341764465
150.328,0.3213281643510934
151.107,0.28050186971699276
151.885,0.24860594506629072
152.663,0.22240036661882426
153.441,0.20027741069898344
154.219,0.18173438517172594
154.997,0.1659689029333496
155.775,0.15096282922593068
156.553,0.1344837964048802
157.33,0.11658273597244935
158.108,0.10051671281109974
158.885,0.0899738881142772
159.662,0.08539296794263648
160.439,0.08385488900907566
161.216,0.0821803379237258
161.993,0.07920946915782322
162.77,0.0755078347424303
163.547,0.07207816134006975
164.323,0.06956813944489323
165.1,0.06809059008326407
165.876,0.06742751189356687
166.652,0.06741110155439411
167.428,0.06803876051145107
168.204,0.06917007761898517
168.98,0.0702539091913196
169.756,0.07051558686269742
170.532,0.06941683235468976
171.307,0.06708203464336407
172.083,0.06459279307337744
172.858,0.06370021150462249
173.633,0.06546828395666683
174.409,0.06891946274106689
175.184,0.07177003789949665
175.959,0.07286166600382363
176.733,0.07310659282060732
177.508,0.0736370056420112
178.283,0.0738872397887256
179.057,0.07225327477122447
179.832,0.06822361943403783
180.606,0.06310922596004534
181.38,0.05866352536190998
182.154,0.055640055443729165
182.928,0.05402135812924989
183.702,0.05404567803447756
184.476,0.05606517861380285
185.249,0.0594296398515698
186.023,0.062417022265871244
186.796,0.06359477077202065
187.57,0.06294173858199925
188.343,0.061655588129831414
189.116,0.06110707826823964
189.889,0.061802125355440087
190.662,0.06314648794223028
191.435,0.06394702669851446
192.207,0.06290776919008466
192.98,0.059103922562894415
193.753,0.052751553566676435
194.525,0.045498173319671535
195.297,0.0394241791240561
196.069,0.035688469164791355
196.841,0.03427093194844759
197.613,0.03450715016266725
198.385,0.03527179039341246
199.157,0.03514785237274691
199.928,0.03340272522372692
200.7,0.030805403773089407
201.471,0.028959911619544094
202.243,0.028727302724777633
203.014,0.02940496210420307
203.785,0.029299629332972803
204.556,0.027231414031194445
205.327,0.023794161830502255
206.097,0.020983646857249388
206.868,0.020261528315648557
207.639,0.021124981418734493
208.409,0.02190557519240831
209.179,0.021752910816887135
209.95,0.021081152798761642
210.72,0.020241663996106277
211.49,0.01911346726150925
212.26,0.018316963962699294
213.029,0.019258497694127078
213.799,0.02192976856082837
214.569,0.023694009055872024
215.338,0.021607797252384285
216.108,0.015842573001668383
216.877,0.010191564146356843
217.646,0.009090754315184479
218.415,0.014063811628058445
219.184,0.022829163666733158
219.953,0.03161232780140378
220.722,0.0382323052221515
221.49,0.04309337507112933
222.259,0.047600429044078824
223.027,0.05223574332377064
223.796,0.056592980070733524
224.564,0.060915826863075465
225.332,0.06686870977454316
226.1,0.0764564547523356
226.868,0.08996923994829487
227.636,0.10488532963668738
228.403,0.11735690197752613
229.171,0.12531836622975953
229.938,0.13006423861371502
230.706,0.13460545319645242
231.473,0.14036340686555623
232.24,0.14544397423063893
233.007,0.14648053889364585
233.774,0.14221557562103265
234.541,0.13475804731148008
235.308,0.12721091954977984
236.074,0.12080970387254837
236.841,0.11466679971907436
237.607,0.10778130303546722
238.373,0.10065119658511139
239.14,0.09471023887378713
239.906,0.09040069935102896
240.672,0.08631813433243066
241.438,0.08071072893390063
242.203,0.07346305708394599
242.969,0.0659642947326387
243.735,0.05961096194224016
244.5,0.05541602366544005
245.265,0.054343583888313514
246.031,0.05678072178341662
246.796,0.061829465153292074
247.561,0.06769839698480726
248.326,0.0728835793000084
249.091,0.07691355806206486
249.855,0.0800513093056978
250.62,0.08237314907393231
251.385,0.0835106011081185
252.149,0.08325425049264128
252.913,0.08192017799184009
253.677,0.080075304834278
254.442,0.0784399995782766
255.206,0.07829057544879854
255.969,0.08153487169988559
256.733,0.08976203550342081
257.497,0.10253071965540214
258.26,0.11655666803733204
259.024,0.12740652754934575
259.787,0.13235990781218876
260.551,0.13135253434403268
261.314,0.12574719390497652
262.077,0.1174379048048919
262.84,0.10913880468021077
263.603,0.10432909278211519
264.365,0.10575031581748434
265.128,0.11348400395408889
265.89,0.12441039896510174
266.653,0.1337663293651627
267.415,0.13774694159783799
268.177,0.13526411553084192
268.94,0.12772885387689864
269.702,0.11754892830247202
270.463,0.10697431535034359
271.225,0.0977933692450466
271.987,0.09113951104544049
272.749,0.08717985091438822
273.51,0.08536032090175584
274.271,0.08524613114661833
275.033,0.08677968393883341
275.794,0.08961923417039659
276.555,0.0928977107185307
277.316,0.09595043433335751
278.077,0.09869477924306569
278.838,0.10095718378251628
279.598,0.10188754456568053
280.359,0.10057678345653742
281.119,0.09725522122124862
281.88,0.09356350720251193
282.64,0.09151948067748968
283.4,0.09224962109914107
284.16,0.09547395040817763
284.92,0.09975259787605954
285.68,0.10327499408031134
286.44,0.1049167329721496
287.199,0.10488927225895263
287.959,0.10456829652851216
288.718,0.1060095260306806
289.477,0.11117849230671645
290.237,0.12034850958185637
290.996,0.13086355097783908
291.755,0.13861735583841714
292.514,0.14160281946666572
293.272,0.1416416929921046
294.031,0.14246031512263532
294.79,0.146628975076037
295.548,0.15431826867890697
296.307,0.16379869831799387
297.065,0.17240216368054592
297.823,0.1779281814531869
298.581,0.1802696649684227
299.339,0.18158104352433052
300.097,0.18439508173814181
300.855,0.18976866306971257
301.612,0.19729037310816355
302.37,0.20624623965623487
303.127,0.21615659953937136
303.885,0.22624124517223473
304.642,0.23497162662332774
305.399,0.24075741235591364
306.156,0.24314852126343142
306.913,0.243163295703595
307.67,0.24264683231114867
308.427,0.2433276303626249
309.183,0.24607781470855214
309.94,0.250892441867077
310.696,0.25780071880771926
311.453,0.2676698327286636
312.209,0.28162948558743983
312.965,0.29968897678510437
313.721,0.32066151480644
314.477,0.3437780505180602
315.233,0.3695671636230401
315.988,0.3982086674841269
316.744,0.4279212052278164
317.5,0.45664299795810037
318.255,0.4849474238917611
319.01,0.515744650857683
319.765,0.5513873309975743
320.521,0.5920773654398528
321.276,0.6365537610290245
322.03,0.683414922413792
322.785,0.732133920394575
323.54,0.7829514297595652
324.294,0.8350513041925661
325.049,0.8848950929522313
325.803,0.9275312631082963
326.558,0.9598109663813106
327.312,0.9817677488546406
328.066,0.9948640920989551
328.82,1.0
329.574,0.997431398886084
330.328,0.987138974208986
331.081,0.968317920892823
331.835,0.9399820710075344
332.588,0.9033416607177929
333.342,0.8623790606235956
334.095,0.8207354265021526
334.848,0.7787375218242344
335.601,0.734362587370267
336.354,0.6864790114785136
337.107,0.6362068398321092
337.86,0.5853023401553519
338.612,0.5341441144213501
339.365,0.48229609655395467
340.117,0.43090495811113483
340.87,0.3833213868413284
341.622,0.34243995376995395
342.374,0.30830888763699477
343.126,0.279461636394825
343.878,0.2557022270705702
344.63,0.2376869570623727
345.382,0.2239165326569521
346.133,0.21024714704615757
346.885,0.1932583310150854
347.636,0.1731897261273838
348.388,0.1532295097114298
349.139,0.13676480490850798
349.89,0.12550738611731557
350.641,0.11914358342955311
351.392,0.11589883861035846
352.143,0.11366256411631745
352.893,0.11109416864860991
353.644,0.10769927004499562
354.395,0.10321782768991752
355.145,0.09767192831128595
355.895,0.09192085985630227
356.646,0.0872484333863857
357.396,0.08425156108772888
358.146,0.08268801468631351
358.896,0.08221509389688429
359.645,0.08241115152685909
360.395,0.0821797856127028
361.145,0.0801124306155329
361.894,0.07581362194169637
362.644,0.07037767055149789
363.393,0.0653698543810573
364.142,0.061634531991310165
364.891,0.059104185764964165
365.64,0.05723768360236366
366.389,0.05539904701314151
367.138,0.05324206662357936
367.887,0.05103716568807002
368.635,0.049394308617323614
369.384,0.04837428890420592
370.132,0.0468746652511377
370.881,0.04328947132707895
371.629,0.03714399800957877
372.377,0.029896202837836314
373.125,0.023756902955681294
373.873,0.020091689313692634
374.621,0.019167068639646248
375.368,0.020657765530079725
376.116,0.023877204812148684
376.864,0.0278798109966399
377.611,0.03167046936387282
378.358,0.03447707009613598
379.105,0.036025196521595165
379.853,0.03636378572867256
380.6,0.035155519191902934
381.347,0.031590695742885776
382.093,0.025845402084826063
382.84,0.020350111803992474
383.587,0.018251029810919875
384.333,0.020182013238771432
385.08,0.023548823642099724
385.826,0.025377834505809285
386.572,0.025023609019213622
387.318,0.02389093599965458
388.064,0.0234150560727002
388.81,0.023923274978960164
389.556,0.024986026375843424
390.302,0.025891077129841213
391.047,0.02543193104187499
391.793,0.022258307449974674
392.538,0.01665591561722695
393.284,0.011452044066584626
394.029,0.009768795655662244
394.774,0.011813659864861504
395.519,0.014757791095320608
396.264,0.015761176114350108
397.009,0.014309689117976756
397.753,0.01186256511467691
398.498,0.010336406593605034
399.242,0.010915385576129673
399.987,0.013476441107382078
400.731,0.01717843077705277
401.475,0.02178839966393073
402.22,0.02772738331548395
402.964,0.03441804702729206
403.707,0.0394406977441732
404.451,0.040236930962086304
405.195,0.03652517765306198
405.939,0.03060719957875175
406.682,0.025450840736911343
407.426,0.022867092601509275
408.169,0.023160991038527996
408.912,0.025484823271007265
409.655,0.028140919109265708
410.398,0.02933139022861027
411.141,0.028238533732307024
411.884,0.025256565300297486
412.627,0.021392051808077028
413.37,0.018093924660833247
414.112,0.017106257216494232
414.854,0.019115494165757595
415.597,0.022393683287983062
416.339,0.023938525810630055
417.081,0.02223212868219281
417.823,0.01811395014583573
418.565,0.013076315105746708
419.307,0.007930185596659577
420.049,0.0033238994419712946
420.79,0.000357154899320758
421.532,0.0
422.273,0.002401494442782933
423.015,0.007072476631523773
423.756,0.013273540017198512
424.497,0.01986909446660754
425.238,0.025315600191783028
425.979,0.02857659855274235
426.72,0.03012332948537735
427.461,0.03142545433073493
428.202,0.033121369207374476
428.942,0.03406490855490174
429.683,0.032738052632451276
430.423,0.02944852844215478
431.163,0.026514897651584313
431.903,0.02619760275209615
432.644,0.02883546321555403
433.384,0.03296326896740243
434.123,0.03679170179830313
434.863,0.039404159111548424
435.603,0.040927259191750436
436.342,0.04208684312843619
437.082,0.043571808404621055
437.821,0.04540080245646862
438.561,0.046839415536202515
439.3,0.047325324604951355
440.039,0.047563671464841785
440.778,0.04927149778446308
441.517,0.0535828267682181
442.256,0.05999217700493825
442.994,0.06709874234278322
443.733,0.07393977870330141
444.472,0.08018253014415866
445.21,0.0855548875507033
445.948,0.08988583489559641
446.687,0.09349486235661723
447.425,0.09683763895112153
448.163,0.09989796419394467
448.901,0.10240765181076676
449.638,0.10436085718189649
450.376,0.10595327507126281
451.114,0.1073914059978544
451.851,0.10880167099771659
452.589,0.10964607144332088
453.326,0.1084398792239083
454.063,0.10401945723017418
454.801,0.09701066160440217
455.538,0.0893409550389288
456.275,0.08258915750057905
457.011,0.07708831823040013
457.748,0.07212579951741362
458.485,0.06689486064368325
459.221,0.06164938285548252
459.958,0.0576390176617844
460.694,0.05570508843435376
461.431,0.05588465250839662
462.167,0.05846491753113346
462.903,0.06382097943177605
463.639,0.07082208413979067
464.375,0.07673025763248612
465.11,0.07918845539326938
465.846,0.0778732978092548
466.582,0.07455696447446634
467.317,0.07201722762717151
468.053,0.07240281462433962
468.788,0.07586256783042301
469.523,0.08048674415915485
470.258,0.08363201318513601
470.993,0.08360358234095948
471.728,0.08053071002263701
472.463,0.0761784446446025
473.198,0.07315982317381575
473.932,0.0737093341383969
474.667,0.07824042482446004
475.401,0.08475447359268964
476.136,0.0900777264460101
476.87,0.09231069005985225
477.604,0.0921251576009687
478.338,0.09132479654571594
479.072,0.09067201278313418
479.806,0.09002009441775312
480.54,0.08968152906226909
481.273,0.09020134407562141
482.007,0.09153409030947039
482.741,0.09392061280620081
483.474,0.09875228717023639
484.207,0.10699525907448303
484.94,0.11746154158340519
485.673,0.12787824977015572
486.406,0.13703335318820312
487.139,0.14499108317718232
487.872,0.1519418950219898
488.605,0.15755349942160554
489.337,0.1613218017453907
490.07,0.16372183406349808
490.802,0.16693489028719222
491.535,0.17356209568394196
492.267,0.18446898810882856
492.999,0.19836972363962913
493.731,0.2129684291244005
494.463,0.2258643207115568
495.195,0.2351597448728672
495.927,0.24041056865071878
496.658,0.24294737255067095
497.39,0.24456131908420228
498.121,0.24594742653627108
498.853,0.2466732616106016
499.584,0.246386441643051
500.315,0.24590292016479792
501.046,0.24733590868155092
501.777,0.2528447356843741
502.508,0.26269874850784686
503.239,0.2745088824467566
503.97,0.28446353487095344
504.7,0.2893270048619973
505.431,0.2877041506721386
506.161,0.28033382804353785
506.891,0.2695583660913475
507.622,0.2583314430841848
508.352,0.24917360870985059
509.082,0.24305700522553983
509.812,0.23870603581235394
510.542,0.23354421334380626
511.271,0.22599386263052304
512.001,0.21673343281460253
512.731,0.20760179943915305
513.46,0.19976818979172872
514.189,0.19307463683530682
514.919,0.1866257356823945
515.648,0.1799009121947148
516.377,0.17335279807329756
517.106,0.16780153967397463
517.835,0.16350583128465387
518.564,0.16015639839555768
519.292,0.15737706793794287
520.021,0.15452149729466236
520.749,0.15023521400442222
521.478,0.14313401442265491
522.206,0.13318157601266337
522.934,0.12183252516170932
523.662,0.1104997578209418
524.39,0.09928295395178684
525.118,0.08779101279385135
525.846,0.0769249927190502
526.574,0.0689847345980095
527.302,0.06573308555050439
528.029,0.06673799526453719
528.757,0.07006409221799328
529.484,0.0744749995686945
530.211,0.08031539352902059
530.939,0.0880507527255514
531.666,0.09660012459892432
532.393,0.10344460805978986
533.119,0.10610378963907381
533.846,0.10359715078687907
534.573,0.0969251153318726
535.3,0.08845160863257624
536.026,0.08082250356153052
536.753,0.07623712411931327
537.479,0.07584828724384199
538.205,0.07882307280558683
538.931,0.08224999613673235
539.657,0.0832648631603788
540.383,0.08154364067805778
541.109,0.07893620926922987
541.835,0.07692478119754834
542.561,0.07558434805852711
543.286,0.07492552725930211
544.012,0.0756756577218209
544.737,0.07807928080524419
545.462,0.08092705790499025
546.188,0.08265507587260248
546.913,0.0831069681452496
547.638,0.08365861343925815
548.363,0.08566595159983068
549.087,0.08903553683342115
549.812,0.09235930094461134
550.537,0.0943330513378007
551.261,0.09493270570613786
551.986,0.09508728053873573
552.71,0.09538211104130823
553.434,0.09553104799951945
554.159,0.09509840066247628
554.883,0.09408564561360296
555.607,0.09280414080618568
556.331,0.09185861201314258
557.054,0.0923344898901371
557.778,0.09520269983770559
558.502,0.09994999006846891
559.225,0.10419999346153964
559.949,0.10553761072575067
560.672,0.10388467140030974
561.395,0.10151640143484886
562.118,0.10040610609130711
562.841,0.09999642654455251
563.564,0.0980993611444432
564.287,0.09390688893149092
565.01,0.0895098468628836
565.733,0.08814661472377841
566.455,0.09137012217247943
567.178,0.09815765542950587
567.9,0.1060783998052438
568.622,0.11268181278334995
569.345,0.11627875051232119
570.067,0.11670841378205495
570.789,0.11563010440771233
571.511,0.11522604051773583
572.233,0.11629943639358925
572.954,0.11821670251683024
573.676,0.12055460902705559
574.398,0.12367643139792564
575.119,0.12747492175971423
575.84,0.13067522813119192
576.562,0.13179343775479577
577.283,0.13035985762159483
578.004,0.12716125120097316
578.725,0.12368798234581674
579.446,0.12158664456594478
580.167,0.12240012163694938
580.887,0.12721808544273192
581.608,0.13595755126681797
582.329,0.14680912594310724
583.049,0.15703750170492758
583.769,0.16528533021587946
584.49,0.17313952098418087
585.21,0.1835286936230167
585.93,0.19723348594672085
586.65,0.21151393047787184
587.37,0.22240021136413227
588.09,0.22815624296274367
588.809,0.23053574446947428
589.529,0.23295949240160335
590.248,0.2377074616003428
590.968,0.24479595230823573
591.687,0.2528446611879827
592.406,0.26020706779611363
593.126,0.26548830964856934
593.845,0.2679010076474215
594.564,0.2673506146323216
595.282,0.26401461415829564
596.001,0.2582325661010735
596.72,0.2510735497273937
597.439,0.24429323809733403
598.157,0.23896435990335257
598.875,0.23425937551063503
599.594,0.22809320709284392
600.312,0.2189483641856162
601.03,0.20702942194536594
601.748,0.19393263010834513
602.466,0.18153992643871833
603.184,0.17113561855857287
603.902,0.1631943772865776
604.619,0.15759875136037682
605.337,0.15389773510877094
606.055,0.1511568671918777
606.772,0.14746605424624898
607.489,0.14034707567661253
608.206,0.1288179259666196
608.924,0.11500236047749546
