Wavenumber,Intensity
66.4034,0.025121790850301397
67.1936,0.03895590914497101
67.9837,0.06289067840955088
68.7738,0.0908959494862844
69.5637,0.11655201371570896
70.3534,0.13494129557543602
71.1431,0.14445197209760927
71.9327,0.14736888627587927
72.7221,0.14808591175822533
73.5115,0.15016862166274336
74.3007,0.15481575511719767
75.0898,0.16133071300115165
75.8788,0.1681290738128597
76.6677,0.1733880145567236
77.4565,0.17581231612012252
78.2451,0.17554672986987963
79.0337,0.17442096148868586
79.8221,0.174883717129096
80.6105,0.17796210830513087
81.3987,0.18187771855140097
82.1868,0.18342918439044587
82.9748,0.18128065882319763
83.7627,0.17725643598089388
84.5504,0.17413049977679548
85.3381,0.1733220995744839
86.1257,0.17509699199106513
86.9131,0.17939966138339344
87.7004,0.18520686899975194
88.4876,0.19015642922927312
89.2747,0.1920945196873743
90.0617,0.19073348299167195
90.8486,0.18755004473802134
91.6354,0.184742883447457
92.422,0.18407810881371434
93.2086,0.18571995092405175
93.995,0.1882565401808679
94.7814,0.19053169643559853
95.5676,0.19312135130661745
96.3537,0.19753427217972425
97.1397,0.20426984197388182
97.9255,0.21216257695889817
98.7113,0.21946712947729194
99.497,0.22550736420607356
100.283,0.23157862261561263
101.068,0.24020955220114923
101.853,0.2528238735033534
102.639,0.26780512642723253
103.424,0.2814810816446775
104.209,0.29162178806987576
104.993,0.29950313960519004
105.778,0.30813892793113246
106.563,0.31946874895899674
107.347,0.33401152408944784
108.132,0.35219338155581953
108.916,0.3744657415494394
109.7,0.40001268946378427
110.485,0.4263689728923537
111.269,0.45098920543550686
112.052,0.4727788683079438
112.836,0.49143530286360904
113.62,0.5054842284974109
114.403,0.5116177848403084
115.187,0.505848916937181
115.97,0.4849497352707699
116.753,0.44757885841755657
117.537,0.3955055295670129
118.32,0.3340441576051101
119.102,0.2705584178345275
119.885,0.21194161990765506
120.668,0.16277929801393426
121.451,0.12450985992868385
122.233,0.09556067989707673
123.015,0.0729727041838741
123.798,0.05488644572574603
124.58,0.04163672176375412
125.362,0.03437485819837305
126.144,0.032731017257972395
126.925,0.03408071273959448
127.707,0.035306079444316255
128.489,0.03514620033020508
129.27,0.0344944175177461
130.051,0.03453340197734958
130.833,0.035029905862225104
131.614,0.03463751239598164
132.395,0.032721136185065995
133.176,0.030763209833107853
133.957,0.0318437907769369
134.737,0.038508358162857324
135.518,0.05090698242763455
136.298,0.06689649383153225
137.079,0.08404884024081098
137.859,0.10188462988583394
138.639,0.12259995777362136
139.419,0.15005275490695721
140.199,0.18790006865632888
140.979,0.23809479125536825
141.759,0.30048161169724963
142.538,0.37278281381047196
143.318,0.44962505191298013
144.097,0.5212365950740783
144.876,0.5746012408730022
145.656,0.5982837566135313
146.435,0.5881544608666895
147.214,0.5494891793539881
147.993,0.4936996136091627
148.771,0.432422634989321
149.55,0.37327519427216976
150.328,0.31914351358336024
151.107,0.2700013622857934
151.885,0.2252278215201427
152.663,0.1848704018727654
153.441,0.14971316739174675
154.219,0.12090653922564157
154.997,0.099601282731256
155.775,0.08627174823882698
156.553,0.07972922203445319
157.33,0.07704958499533449
158.108,0.07515458697475866
158.885,0.07269715512716439
159.662,0.07033606936338302
160.439,0.06936799762691721
161.216,0.07012563404288556
161.993,0.07138255663599911
162.77,0.0709567420038284
163.547,0.06703160106843814
164.323,0.059416073357587404
165.1,0.04987592416477446
165.876,0.04129901486671043
166.652,0.036342679233062516
167.428,0.0362455161764625
168.204,0.04008326975380088
168.98,0.044866166948875456
169.756,0.047051095993520024
170.532,0.045112609390042746
171.307,0.04100522634371098
172.083,0.03856778964410158
172.858,0.040001035125884765
173.633,0.044039629336794776
174.409,0.047765586091895615
175.184,0.049666433916584
175.959,0.05037149628454795
176.733,0.051106241709542935
177.508,0.05243179936717189
178.283,0.05429590050945478
179.057,0.056300606203405795
179.832,0.05756867850964027
180.606,0.057001423027631976
181.38,0.054335296321191474
182.154,0.05074701855680706
182.928,0.04778168307497806
183.702,0.04555008740644817
184.476,0.04240562382709936
185.249,0.03680646501493815
186.023,0.02959858866995393
186.796,0.024180614783608237
187.57,0.024131272688861602
188.343,0.030643251609498514
189.116,0.0418874892523069
189.889,0.05420480535165185
190.662,0.06404760654331128
191.435,0.06951835244992892
192.207,0.07062152144427326
192.98,0.06843352207717203
193.753,0.06438952050090635
194.525,0.060151210166397774
195.297,0.05730702622543419
196.069,0.05649491604858791
196.841,0.05688845249371887
197.613,0.056992601554142173
198.385,0.056050750806756464
199.157,0.05455944101258358
199.928,0.05345180790927773
200.7,0.0530872941947545
201.471,0.05306718616560685
202.243,0.052676198859569416
203.014,0.05129278593895954
203.785,0.04861293222956677
204.556,0.04483148165010646
205.327,0.04069569427039897
206.097,0.03709948923186945
206.868,0.034278306032691754
207.639,0.0314726878790942
208.409,0.027842551877370864
209.179,0.023774823792658835
209.95,0.020795419983161912
210.72,0.020101456223539416
211.49,0.02155070277428287
212.26,0.02393869612524981
213.029,0.02565508543540075
213.799,0.025073374848769238
214.569,0.021277221467107515
215.338,0.01517293646197396
216.108,0.009499282323593669
216.877,0.0068315730164370415
217.646,0.007487830396082231
218.415,0.009685358119576801
219.184,0.011410868644714718
219.953,0.011835181583473587
220.722,0.011544005503074519
221.49,0.012038442967641356
222.259,0.014661282555625776
223.027,0.019170594726394256
223.796,0.023195505826671025
224.564,0.02384340487765103
225.332,0.02048229054435926
226.1,0.01570538617818408
226.868,0.012928135834021628
227.636,0.013116616828334125
228.403,0.014355049112875391
229.171,0.014341773712735921
229.938,0.012534734402191723
230.706,0.009840455296914003
231.473,0.007038164308961298
232.24,0.004176748697035708
233.007,0.0015076722769868268
233.774,0.0004885402100037077
234.541,0.003104655828167909
235.308,0.009663073127410325
236.074,0.017569565444717307
236.841,0.022972989175164518
237.607,0.023773370923888124
238.373,0.02085451823327562
239.14,0.016672108591776126
239.906,0.013207528363798397
240.672,0.011145443298636967
241.438,0.01020706893142972
242.203,0.009852116613701509
242.969,0.009932479292123052
243.735,0.010912508827776808
244.5,0.013315047975548932
245.265,0.016848705806119246
246.031,0.020215393240682843
246.796,0.02187440274364405
247.561,0.021206550298606117
248.326,0.019266675696618742
249.091,0.018250661137714026
249.855,0.01972072754707039
250.62,0.023231472753241004
251.385,0.026743215975950415
252.149,0.028298885173518265
252.913,0.027541920142219102
253.677,0.0258968181292257
254.442,0.025144531203892217
255.206,0.025861075166637507
255.969,0.027515757794303992
256.733,0.02950056761667054
257.497,0.031285550010477677
258.26,0.03207471132127972
259.024,0.03148897664663015
259.787,0.030620296580047616
260.551,0.03145163622247701
261.314,0.03482187271058405
262.077,0.03941503399642118
262.84,0.04300045035138991
263.603,0.04429719646772549
264.365,0.043561114377959204
265.128,0.04186563239164493
265.89,0.04009132021596988
266.653,0.03848074333149684
267.415,0.03690025890051841
268.177,0.03531471068018399
268.94,0.03409119986614586
269.702,0.034135125137219176
270.463,0.036487102469421565
271.225,0.041104147444969236
271.987,0.04596198586288618
272.749,0.04816173900168545
273.51,0.04656502222771765
274.271,0.043012488761139694
275.033,0.04036316835958537
275.794,0.039760509052814155
276.555,0.04038266179081411
277.316,0.04110722382348216
278.077,0.041475918196610416
278.838,0.04146948939264045
279.598,0.04122694792723953
280.359,0.04112262352664693
281.119,0.04172014006112771
281.88,0.043492040215436824
282.64,0.04663200190739638
283.4,0.05113029225962449
284.16,0.05682372808378663
284.92,0.06322109981790273
285.68,0.06949281405800894
286.44,0.07486599627776859
287.199,0.07896490501300306
287.959,0.08182938262581062
288.718,0.08383673755247573
289.477,0.08541587151865102
290.237,0.0866034585971347
290.996,0.08723490042717058
291.755,0.08778448584580621
292.514,0.08939356739926946
293.272,0.092592292855223
294.031,0.09674916043027527
294.79,0.10145515550467146
295.548,0.10781957842761183
296.307,0.11759780733479795
297.065,0.13117361943455977
297.823,0.14659775302311068
298.581,0.1604665309636117
299.339,0.1699540447027674
300.097,0.17457089980441573
300.855,0.17589158509741687
301.612,0.1753923933482727
302.37,0.1733384922871489
303.127,0.17021633400322947
303.885,0.16806382713628445
304.642,0.16931525348807605
305.399,0.17483529226712904
306.156,0.18375518435247623
306.913,0.19482865779882017
307.67,0.20738842216932948
308.427,0.22118959062396185
309.183,0.23573475631204474
309.94,0.24965893308311607
310.696,0.2608294042791254
311.453,0.26798696852635207
312.209,0.27318386759330665
312.965,0.28192722144110544
313.721,0.2994934488080717
314.477,0.32663076062563806
315.233,0.35916435371053795
315.988,0.3917201369170964
316.744,0.42158964856131714
317.5,0.44972389265910645
318.255,0.4793848265752966
319.01,0.514178516845606
319.765,0.5561329586416437
320.521,0.604403419430962
321.276,0.655544126571347
322.03,0.7055213734442545
322.785,0.7524162852503166
323.54,0.7976354845142714
324.294,0.8436240824308664
325.049,0.8897131254201174
325.803,0.9312553164880526
326.558,0.9633490604029784
327.312,0.9843600920473433
328.066,0.9957684515819101
328.82,1.0
329.574,0.9985946720132524
330.328,0.9911101454527222
331.081,0.9754151350845793
331.835,0.9496510005802069
332.588,0.9139633295909362
333.342,0.8703185215453478
334.095,0.8214628558579468
334.848,0.770167598300737
335.601,0.7185177806298249
336.354,0.6674580473408224
337.107,0.6171387809169345
337.86,0.5675869134191133
338.612,0.5190023672348104
339.365,0.47192272515984673
340.117,0.42737542879737267
340.87,0.38673512608244726
341.622,0.3515796551709077
342.374,0.323355745965494
343.126,0.3018879646590438
343.878,0.2840621902471395
344.63,0.2654670068238054
345.382,0.24391015513087907
346.133,0.22076639357617547
346.885,0.1991822138141322
347.636,0.18166264682072372
348.388,0.16874388437933752
349.139,0.15887278880987285
349.89,0.14938656895976835
350.641,0.13825342299429264
351.392,0.12570146635008408
352.143,0.11424111774844951
352.893,0.10615177362560566
353.644,0.1006115743787162
354.395,0.0941748015819437
355.145,0.08452874240264294
355.895,0.0731289264520295
356.646,0.06371679402011561
357.396,0.05882507364033916
358.146,0.05801439966912857
358.896,0.05880694327555976
359.645,0.05852975667377205
360.395,0.055574145923518746
361.145,0.04994118554002123
361.894,0.043184493129853396
362.644,0.03758509791318056
363.393,0.03478723882693387
364.142,0.03489363022720394
364.891,0.036800182725326876
365.64,0.039242761895446655
366.389,0.04127725025435101
367.138,0.04198934009829564
367.887,0.0406238912067971
368.635,0.037506314954832275
369.384,0.03423913806954996
370.132,0.03228338114376454
370.881,0.03157908242511107
371.629,0.03087430469147805
372.377,0.029229301515813603
373.125,0.027011010462947644
373.873,0.02544084297453178
374.621,0.025176260234825346
375.368,0.02551711098620603
376.116,0.025279708469978193
376.864,0.024322013638282475
377.611,0.02389610844652376
378.358,0.025400737658413428
379.105,0.028880752611716035
379.853,0.032893781269303084
380.6,0.03578574746085488
381.347,0.03680767145641472
382.093,0.03598970001478195
382.84,0.03348783404066343
383.587,0.02957118173285272
384.333,0.025166053267801025
385.08,0.02177886240870982
385.826,0.02045869859930708
386.572,0.02097119006042
387.318,0.022085962452394418
388.064,0.022403418163157503
388.81,0.02101665121680721
389.556,0.018005758916624766
390.302,0.0145016252477566
391.047,0.011929195436317456
391.793,0.010867036485209557
392.538,0.01054478316521662
393.284,0.009429183760555442
394.029,0.006539245708539831
394.774,0.002637766178184531
395.519,0.0001205756605653921
396.264,0.0011387808460614367
397.009,0.005537982071829129
397.753,0.010866739692647676
398.498,0.01448852137626091
399.242,0.015519950531724593
399.987,0.01488710140090711
400.731,0.01401369652764509
401.475,0.013548164213090108
402.22,0.012987791804376318
402.964,0.011298083648891564
403.707,0.007948238544569493
404.451,0.0036412640784400036
405.195,0.0002852310931189753
405.939,0.0
406.682,0.003559988210875041
407.426,0.009568877696646057
408.169,0.015322674604852279
408.912,0.01875255416308542
409.655,0.019754106328969276
410.398,0.01978657796699037
411.141,0.02013724511124409
411.884,0.020632756490392142
412.627,0.020124487078193393
413.37,0.017912321380974754
414.112,0.01443721284541975
414.854,0.011060059652331835
415.597,0.009925279675366055
416.339,0.013676806453020104
417.081,0.023459894618225743
417.823,0.036109212274999254
418.565,0.044812642005636
419.307,0.044380227862793775
420.049,0.03554053072912309
420.79,0.023780662650454643
421.532,0.015040625474802108
422.273,0.012358157958771236
423.015,0.014946404290624155
423.756,0.0195570453309777
424.497,0.022811060218138016
425.238,0.02280629813938145
425.979,0.019614251219847473
426.72,0.01482372200457077
427.461,0.010264012779197702
428.202,0.006917049349737614
428.942,0.005174108894052965
429.683,0.005754782051261318
430.423,0.009755216879927848
431.163,0.01754441256654094
431.903,0.027709323065419577
432.644,0.03730848688765802
433.384,0.043418825369303936
434.123,0.0448091542305763
434.863,0.042545720453804545
435.603,0.03911943925186001
436.342,0.036831309193073425
437.082,0.03678080170317662
437.821,0.03903508281500423
438.561,0.04323618328860569
439.3,0.04880605200409217
440.039,0.05492436402802448
440.778,0.060832572141479614
441.517,0.06630653971106906
442.256,0.07180398420209819
442.994,0.07794862521325852
443.733,0.08458643115076483
444.472,0.09050215596877996
445.21,0.09455085957454976
445.948,0.09700835309502381
446.687,0.09946101400943656
447.425,0.10340454839519925
448.163,0.10883243608064944
448.901,0.11366155836596581
449.638,0.1146571667176363
450.376,0.10985225155748339
451.114,0.10053564869513129
451.851,0.09053076957731518
452.589,0.08313039285284718
453.326,0.07872796181646388
454.063,0.07539826366318193
454.801,0.07137449537996463
455.538,0.06663336080324729
456.275,0.06225977776203818
457.011,0.058838367786413964
457.748,0.05591460973365864
458.485,0.05280112478803611
459.221,0.049261507623936475
459.958,0.045259043903432244
460.694,0.04059552311142486
461.431,0.03533840884846101
462.167,0.030414000017143054
462.903,0.027283872734570395
463.639,0.026807821084808885
464.375,0.02840746499717112
465.11,0.03044093040964805
465.846,0.03144707347931112
466.582,0.03086111242575842
467.317,0.02880731647735541
468.053,0.025917417406731723
468.788,0.02340632787314348
469.523,0.022639115455650435
470.258,0.02443288371217574
470.993,0.029058958961366226
471.728,0.03647022967271512
472.463,0.04575525332541442
473.198,0.054672872632644164
473.932,0.060690011822533356
474.667,0.06273194907898878
475.401,0.06161441872473633
476.136,0.05887817467111312
476.87,0.055748173638099745
477.604,0.05325998372675668
478.338,0.05246916381257855
479.072,0.05393158019960278
479.806,0.05733699502206258
480.54,0.06173195209269989
481.273,0.06570270904612464
482.007,0.06780767602806764
482.741,0.06780842052552954
483.474,0.06742282046761203
484.207,0.06920910701223924
484.94,0.07441906236744149
485.673,0.08192867721067955
486.406,0.08936177579457295
487.139,0.09534994764682747
487.872,0.10046507676516253
488.605,0.10614733878422955
489.337,0.11335174325450899
490.07,0.12214463796627
490.802,0.1318125457748373
491.535,0.14129172361444772
492.267,0.15012204981068256
492.999,0.15919547468134065
493.731,0.1701768756259187
494.463,0.18397456360409473
495.195,0.1997052948028281
495.927,0.21489689444633725
496.658,0.2265893914223582
497.39,0.2327653307908491
498.121,0.23368902549551426
498.853,0.2322733177067291
499.584,0.23245925948430873
500.315,0.2364266123830205
501.046,0.24331766219718823
501.777,0.2504431092693078
502.508,0.25512422185247235
503.239,0.2557806154029804
503.97,0.2524589953168176
504.7,0.24674460990054176
505.431,0.24051767655085995
506.161,0.2345001550765378
506.891,0.22814415099068938
507.622,0.22055490310971482
508.352,0.21113334366593814
509.082,0.1999142905360711
509.812,0.18800121524300933
510.542,0.17727284719743794
511.271,0.16898547091997518
512.001,0.16267586507151457
512.731,0.15676411406970048
513.46,0.15018208230429966
514.189,0.14317791074262318
514.919,0.1364115280284832
515.648,0.12967087238548167
516.377,0.12203038296175091
517.106,0.11318706446717515
517.835,0.10419660735914182
518.564,0.09678751869969954
519.292,0.09216682717702694
520.021,0.09056078923584979
520.749,0.09157635181914504
521.478,0.09440733294954137
522.206,0.09739210774162582
522.934,0.09787065000533811
523.662,0.09338319109712556
524.39,0.0836542488001849
525.118,0.07151531158671219
525.846,0.06145373487022112
526.574,0.05653713137876259
527.302,0.05642647977679705
528.029,0.05825665445515994
528.757,0.059087727710912794
529.484,0.05749539468404477
530.211,0.05368507888663731
530.939,0.04900696203205626
531.666,0.045301442651083504
532.393,0.04398664206898664
533.119,0.045144083840379885
533.846,0.047140602807472794
534.573,0.04749057422939679
535.3,0.045047368204487875
536.026,0.041542302621570486
536.753,0.03994022955580872
537.479,0.04098651885714741
538.205,0.04247714142763705
538.931,0.042263764789930776
539.657,0.04068028380599113
540.383,0.03931872530773628
541.109,0.03861278706400043
541.835,0.03775113193603974
542.561,0.03633154497371542
543.286,0.03506157371811069
544.012,0.03488250149888457
544.737,0.03588346337857444
545.462,0.0370880229751776
546.188,0.03711153125680178
546.913,0.03512383276739842
547.638,0.03149280935124288
548.363,0.027705566945014682
549.087,0.025679164545313278
549.812,0.026749908261452196
550.537,0.030791015066377613
551.261,0.036031966759448295
551.986,0.039742435660206236
552.71,0.03958828777785949
553.434,0.035317137973347526
554.159,0.029624810742518496
554.883,0.02677944213312897
555.607,0.029417440608717208
556.331,0.03627363408894137
557.054,0.04332214739043613
557.778,0.04738216791376164
558.502,0.04847869738734461
559.225,0.048810501723222016
559.949,0.05014792361788962
560.672,0.052485607981865634
561.395,0.0545013083624011
562.118,0.05472376327707488
562.841,0.05260637361729887
563.564,0.04901738004075478
564.287,0.045649627485631734
565.01,0.04380118658436939
565.733,0.04394289539246592
566.455,0.046231546062921854
567.178,0.05051255264669899
567.9,0.05559416081973375
568.622,0.0592372150446012
569.345,0.059285682615495106
570.067,0.05500809845505817
570.789,0.04780587686105632
571.511,0.040658057100642825
572.233,0.03637497311100984
572.954,0.036093655300011
573.676,0.03902890572717257
574.398,0.04312225145394165
575.119,0.04635621254076603
575.84,0.04849098720652353
576.562,0.05134708108020447
577.283,0.05645937697832331
578.004,0.06273722497454558
578.725,0.06736467332348066
579.446,0.06869842987705682
580.167,0.06748282658412001
580.887,0.06562716014593643
581.608,0.0645429869177797
582.329,0.06443138154776618
583.049,0.06447664603427247
583.769,0.06363758686976788
584.49,0.061662661585396183
585.21,0.059494265519508704
585.93,0.05847493742216003
586.65,0.05907796174097753
587.37,0.06051316897038472
588.09,0.06151966455764767
588.809,0.06142992655395035
589.529,0.06055427685741048
590.248,0.05978890402403875
590.968,0.059995629000992146
591.687,0.06166415881324473
592.406,0.06488697829644714
593.126,0.0693454771954038
593.845,0.07434745115494357
594.564,0.07911721644276942
595.282,0.08324649586164459
596.001,0.08686379631360105
596.72,0.0903219888518551
597.439,0.0937629775963279
598.157,0.09699769173971777
598.875,0.09970768141656224
599.594,0.1016999218619176
600.312,0.10295726075169884
601.03,0.1032903877455954
601.748,0.10190317031816393
602.466,0.0978961155723337
603.184,0.09164527708767996
603.902,0.08520423219156484
604.619,0.08074607484760701
