Wavenumber,Intensity
66.4034,0.0
67.1936,0.02293644482001126
67.9837,0.06051120468220037
68.7738,0.10136188770472121
69.5637,0.13660543476383022
70.3534,0.1621976053557565
71.1431,0.17836811676430123
71.9327,0.18776833557426365
72.7221,0.19364701388041283
73.5115,0.1987921367591043
74.3007,0.2050798520178073
75.0898,0.21299050027454244
75.8788,0.2212111830482888
76.6677,0.22692669405250038
77.4565,0.22721768750540008
78.2451,0.22111656799302903
79.0337,0.21098723416917714
79.8221,0.20164015836913676
80.6105,0.19708956460751903
81.3987,0.19758803212118672
82.1868,0.20042306435043025
82.9748,0.2038178394238916
83.7627,0.20875290149132825
84.5504,0.21615002142436182
85.3381,0.22383236394486053
86.1257,0.22805659242819137
86.9131,0.22737147493909385
87.7004,0.22354638975329563
88.4876,0.21906574501019027
89.2747,0.21472570807851082
90.0617,0.20987590163790096
90.8486,0.20450080954893127
91.6354,0.20054355139822858
92.422,0.20069486831906122
93.2086,0.20585237487878982
93.995,0.21415807106929685
94.7814,0.22261878864834292
95.5676,0.22929674943738765
96.3537,0.23383443667159848
97.1397,0.2364625093013872
97.9255,0.2371781483487735
98.7113,0.23605829356447852
99.497,0.23406512708424507
100.283,0.23322725940121078
101.068,0.23603139630219983
101.853,0.24445202416495102
102.639,0.2588732149570397
103.424,0.2774227771849064
104.209,0.29673998740479796
104.993,0.3142439292011199
105.778,0.329957778276927
106.563,0.34575654787196664
107.347,0.3629592831828395
108.132,0.3813925863871942
108.916,0.40084275912237954
109.7,0.4223586939925655
110.485,0.4471270597462788
111.269,0.4742335675588323
112.052,0.5003389760582758
112.836,0.5217682540971939
113.62,0.5362410063830358
114.403,0.5421808237874917
115.187,0.5373561118714962
115.97,0.5194127994908496
116.753,0.4877327940233558
117.537,0.4443163049332838
118.32,0.3929321488552829
119.102,0.3377304097284653
119.885,0.282620724982645
120.668,0.23129411322745558
121.451,0.18677786544795227
122.233,0.15029644690964164
123.015,0.12073500120830238
123.798,0.09596667542991597
124.58,0.07525567392989763
125.362,0.06014256532205945
126.144,0.052466583173586316
126.925,0.051637581928011614
127.707,0.05432704912687271
128.489,0.056779918968975364
129.27,0.05715090550768935
130.051,0.05578456225701445
130.833,0.053805338674908915
131.614,0.051873323916804825
132.395,0.05038429091443663
133.176,0.05046743986433574
133.957,0.05389707178205142
134.737,0.061779559456077215
135.518,0.07384888257291557
136.298,0.08918902750827919
137.079,0.10718299227901552
137.859,0.12789291007093104
138.639,0.15224468444513042
139.419,0.18222298903269832
140.199,0.22075125713340157
140.979,0.27072591783168093
141.759,0.3332129302136087
142.538,0.4057845895193165
143.318,0.48214288691346896
144.097,0.5530288714323617
144.876,0.6077439184910602
145.656,0.6364467395974922
146.435,0.6335078430293698
147.214,0.6004853480210945
147.993,0.5462284930162874
148.771,0.48328356777485815
149.55,0.42241466506850756
150.328,0.3688444046915297
151.107,0.3227083625998107
151.885,0.28207197081323704
152.663,0.24493757248995537
153.441,0.2097656256655532
154.219,0.1763502741419892
154.997,0.14670616688234045
155.775,0.12380301335559306
156.553,0.10866577475475703
157.33,0.09936957517469616
158.108,0.09319573971722858
158.885,0.0888281665005807
159.662,0.08611353881760374
160.439,0.08480607301563263
161.216,0.08436247518835945
161.993,0.08450530427736035
162.77,0.08522627283833112
163.547,0.08612597586012839
164.323,0.08621443191838246
165.1,0.08469794190723937
165.876,0.08177241007479473
166.652,0.07826451028293896
167.428,0.07474642444673223
168.204,0.0714714781217424
168.98,0.06886188645629408
169.756,0.06712593428767916
170.532,0.06568099495081271
171.307,0.06397229013256027
172.083,0.06262645614881544
172.858,0.06296257551655567
173.633,0.06563347056182717
174.409,0.0702560067179466
175.184,0.07563407100231533
175.959,0.07964516813201214
176.733,0.07985749339151557
177.508,0.07550417034521802
178.283,0.06876849292203588
179.057,0.06328385100715088
179.832,0.06122682613081585
180.606,0.06206737552458137
181.38,0.06382604453262364
182.154,0.06482182498171339
182.928,0.0641806458354328
183.702,0.061582182239665245
184.476,0.057498827212698556
185.249,0.05356073201389081
186.023,0.05196067443113977
186.796,0.05407417647936161
187.57,0.059508406401608115
188.343,0.0663946560668008
189.116,0.07271499298146757
189.889,0.07751109057199426
190.662,0.08095014808774009
191.435,0.08338952348850968
192.207,0.08473749362862776
192.98,0.08472969397025924
193.753,0.08329396774773146
194.525,0.08037089479632194
195.297,0.07591719585427924
196.069,0.07057705282256893
196.841,0.0659135886176541
197.613,0.06340925990348398
198.385,0.06329474423116949
199.157,0.06452035879788925
199.928,0.06564592869417861
200.7,0.0657077288173556
201.471,0.06456939652925014
202.243,0.06258744510757962
203.014,0.06002761532026242
203.785,0.05710660376195393
204.556,0.05444379514400993
205.327,0.05280463311692412
206.097,0.05228388801813716
206.868,0.05210299121454705
207.639,0.05117105666366637
208.409,0.04882571870478117
209.179,0.045432123621612676
209.95,0.04234083788986911
210.72,0.04079049739624006
211.49,0.04064716408852629
212.26,0.04023660418750727
213.029,0.037574191368544264
213.799,0.032276569824022217
214.569,0.026632438819692267
215.338,0.02421818069895775
216.108,0.026710106660109756
216.877,0.03206102482952308
217.646,0.036080131580362704
218.415,0.03578756833193717
219.184,0.03138734320164952
219.953,0.0254699496494493
220.722,0.020791253453522084
221.49,0.018813619408365567
222.259,0.019668540719865107
223.027,0.022618911280516574
223.796,0.026382232521574168
224.564,0.029748839234473284
225.332,0.032508525048303365
226.1,0.03554420661701395
226.868,0.03952858891634712
227.636,0.04372231767250671
228.403,0.046615144457964955
229.171,0.0476996775348214
229.938,0.04781844810696375
230.706,0.04753544228237511
231.473,0.04597837119143383
232.24,0.04193047907361764
233.007,0.035729073736682916
233.774,0.0293439620150228
234.541,0.02449074296641296
235.308,0.02124258308918775
236.074,0.01900478448048198
236.841,0.01840417802597673
237.607,0.021319015148113667
238.373,0.02878104666360918
239.14,0.03921533557504643
239.906,0.048914311851406364
240.672,0.05407572877349854
241.438,0.05268872336074478
242.203,0.04547460075428707
242.969,0.03575988938791326
243.735,0.027877792605967257
244.5,0.024529639818143312
245.265,0.025240573515008562
246.031,0.027471433827005513
246.796,0.0290072593515422
247.561,0.029177373779874484
248.326,0.028524261168710267
249.091,0.028074930578275065
249.855,0.02907176511866183
250.62,0.03296247785710616
251.385,0.04092780128725526
252.149,0.05271308883970549
252.913,0.06572082386660508
253.677,0.07563252201012581
254.442,0.07868727992179583
255.206,0.07403210227633027
255.969,0.06413496352194267
256.733,0.05286664252169816
257.497,0.04318952558302985
258.26,0.03649496202047904
259.024,0.03322074452965284
259.787,0.033146053258629
260.551,0.0351266068167482
261.314,0.03727027127527205
262.077,0.037804618073636796
262.84,0.03588975055572391
263.603,0.03188007936862368
264.365,0.027086405947307015
265.128,0.02312851983415713
265.89,0.021185944672765786
266.653,0.0216619036075682
267.415,0.024352688260757083
268.177,0.02880886114467659
268.94,0.034693157406519765
269.702,0.04192204763760509
270.463,0.05022517442874261
271.225,0.05842919661609531
271.987,0.06454172417575721
272.749,0.06695091284485497
273.51,0.0656376676695432
274.271,0.062285356562042815
275.033,0.0591720715768375
275.794,0.05763488318818096
276.555,0.057494543440183676
277.316,0.058029641812250635
278.077,0.0591663411356662
278.838,0.061173828250615125
279.598,0.06353315848953121
280.359,0.06525855830328094
281.119,0.06667839927087182
281.88,0.06974094296688894
282.64,0.0757414043041289
283.4,0.08338781571864678
284.16,0.08970545517941818
284.92,0.09256908186672586
285.68,0.09221982690320449
286.44,0.09062925680667366
287.199,0.08953985219593337
287.959,0.08920247054811001
288.718,0.08889177298928622
289.477,0.08815086140241818
290.237,0.08737148571763291
290.996,0.08771631621473601
291.755,0.09077149916232263
292.514,0.09770573580550992
293.272,0.10810603516572735
294.031,0.11969828238254993
294.79,0.12960414477981475
295.548,0.13589519616893236
296.307,0.13796279618374888
297.065,0.13623544918166305
297.823,0.1324711661827825
298.581,0.12992989815256548
299.339,0.13179331155605875
300.097,0.1387306822500985
300.855,0.1485212443036635
301.612,0.1583011106679134
302.37,0.16661640024823796
303.127,0.1732177388428977
303.885,0.17781832000726244
304.642,0.17993551807060318
305.399,0.17984607153922072
306.156,0.17925040543074028
306.913,0.1809955789241124
307.67,0.18790762572058073
308.427,0.20091248812284151
309.183,0.21782500717482026
309.94,0.23470538303622485
310.696,0.24894616273793455
311.453,0.26073718005778895
312.209,0.27178257476592776
312.965,0.28379504141740586
313.721,0.29841932552404493
314.477,0.31721828858803086
315.233,0.34065269526429204
315.988,0.3675368113643656
316.744,0.3963714437240207
317.5,0.4272507897138578
318.255,0.46185641769205826
319.01,0.5014936501751325
319.765,0.5456974389719192
320.521,0.5926046176855009
321.276,0.6399520735712896
322.03,0.685828231234207
322.785,0.7295598847644552
323.54,0.7721920830819976
324.294,0.8150638554683872
325.049,0.8573664785778586
325.803,0.8957880018551259
326.558,0.9272015102497527
327.312,0.9515512969613188
328.066,0.9715115598734338
328.82,0.9886258477274963
329.574,1.0
330.328,0.9998118131975011
331.081,0.9842540034012586
331.835,0.954393341158582
332.588,0.91467857956078
333.342,0.8698702568941744
334.095,0.8231794272344113
334.848,0.775976310544534
335.601,0.728354596416984
336.354,0.6800645042568826
337.107,0.6312641908160728
337.86,0.5823396068077896
338.612,0.5332376881985236
339.365,0.4839986458162069
340.117,0.4362944401832306
340.87,0.3934049586409276
341.622,0.35785054461728555
342.374,0.32919321598251766
343.126,0.30454971011575155
343.878,0.28123960551461297
344.63,0.25861575067420584
345.382,0.23740628755780308
346.133,0.21835474436186422
346.885,0.20221722946457982
347.636,0.18992892198099118
348.388,0.18118272300938595
349.139,0.17338771109354678
349.89,0.1635227358268585
350.641,0.15094917417396506
351.392,0.13766996811342178
352.143,0.1263416999796098
352.893,0.11857194185831088
353.644,0.11418439337219392
354.395,0.11114464425844031
355.145,0.10680087429690341
355.895,0.10007520882058878
356.646,0.09241448122204941
357.396,0.08635306939047237
358.146,0.08324565375923347
358.896,0.08239074655913023
359.645,0.08184747846468539
360.395,0.07955876462289703
361.145,0.07412217259621467
361.894,0.06573961098425846
362.644,0.056780325310322385
363.393,0.050460302672313044
364.142,0.048407768800016446
364.891,0.04966075847648653
365.64,0.05180227215105895
366.389,0.05287231154717808
367.138,0.05270856648601076
367.887,0.052547344509222625
368.635,0.052980277434229194
369.384,0.05280578743020544
370.132,0.05049034876107852
370.881,0.04622508317065641
371.629,0.041927929052869996
372.377,0.03943763040396512
373.125,0.03893788888545648
373.873,0.039017631216864766
374.621,0.03819032929260965
375.368,0.03634193733508498
376.116,0.03479262139873408
376.864,0.035139780128475046
377.611,0.037869367842175636
378.358,0.04169786779437738
379.105,0.044308594635316674
379.853,0.04409758235475217
380.6,0.04132095720143298
381.347,0.03767793257633938
382.093,0.0352741333456007
382.84,0.035814210321813214
383.587,0.03952551604309032
384.333,0.04415554163521056
385.08,0.045993895264854937
385.826,0.04304209706093553
386.572,0.03708664880658842
387.318,0.031977007577203044
388.064,0.029909668231117834
388.81,0.029859636673053434
389.556,0.029337171748293946
390.302,0.026861059435688533
391.047,0.022588338426143134
391.793,0.017434984572666293
392.538,0.012487722976135124
393.284,0.009109981995753533
394.029,0.008641367040475634
394.774,0.011394211900305918
395.519,0.016229118457655577
396.264,0.021319425823860552
397.009,0.025047714716355602
397.753,0.026386860336205336
398.498,0.025272087130845836
399.242,0.02294324822145469
399.987,0.021525144640833663
400.731,0.022808418652319615
401.475,0.026943413611340394
402.22,0.03197046988113198
402.964,0.034915632831852006
403.707,0.033932620895251966
404.451,0.029430349451268968
405.195,0.023237440405471613
405.939,0.017432520120417804
406.682,0.014094997925714626
407.426,0.015043141287280558
408.169,0.02060151074830909
408.912,0.028565380948033535
409.655,0.0352754108068533
410.398,0.03839713810499512
411.141,0.03857014768525895
411.884,0.038196504442867485
412.627,0.03897088541707918
413.37,0.04074273420780287
414.112,0.042259527648834144
414.854,0.04231845196168731
415.597,0.040121157262729065
416.339,0.03537180824176859
417.081,0.028944711392562227
417.823,0.02326073311673497
418.565,0.021062776053828187
419.307,0.02336179862452189
420.049,0.0285824004263864
420.79,0.033661562471687445
421.532,0.03594303751867624
422.273,0.0344378046586601
423.015,0.03008811703537811
423.756,0.02521245476474149
424.497,0.022258686680158023
425.238,0.02251174275968834
425.979,0.025770637100214638
426.72,0.03083592328886417
427.461,0.0359429890743357
428.202,0.039212140778429494
428.942,0.03957227445348993
429.683,0.037568814044308736
430.423,0.03505539113201189
431.163,0.03380160102063782
431.903,0.03408993471505491
432.644,0.03457147374722445
433.384,0.03370308542136449
434.123,0.031470999981036515
434.863,0.029567251787273728
435.603,0.029753108302002597
436.342,0.032236257199826576
437.082,0.0357511093566518
437.821,0.038834155514280766
438.561,0.04069194544282634
439.3,0.04133831189362813
440.039,0.041423166375206315
440.778,0.041771166062392555
441.517,0.04281811125958753
442.256,0.044735104913334066
442.994,0.04828040466454712
443.733,0.05509033732106348
444.472,0.06649123449301048
445.21,0.08190995215977276
445.948,0.0985749039413958
446.687,0.11281237870179117
447.425,0.12182309075047036
448.163,0.12475321168681895
448.901,0.12257814441142624
449.638,0.1171639319767242
450.376,0.11043024395294014
451.114,0.10415306865255616
451.851,0.09979416359088272
452.589,0.09772796701169392
453.326,0.09678916308687319
454.063,0.09526087542534345
454.801,0.09244440761079711
455.538,0.08901598434439757
456.275,0.0858486818017277
457.011,0.08269982714963577
457.748,0.0783565381842018
458.485,0.07229447359432294
459.221,0.06584818329123733
459.958,0.061218602197286774
460.694,0.05961106927951208
461.431,0.06073370159689051
462.167,0.06354345976048564
462.903,0.06666169610074325
463.639,0.06818679325185682
464.375,0.06616414032965476
465.11,0.06032374646737363
465.846,0.053361539957527265
466.582,0.04944244166629642
467.317,0.050611289050456566
468.053,0.05491381576952063
468.788,0.05839798230745586
469.523,0.058762439351933725
470.258,0.05690158275620307
470.993,0.05522918531517659
471.728,0.05503523894696376
472.463,0.055917919176225
473.198,0.057259296747192406
473.932,0.05916553181572247
474.667,0.06185490986690545
475.401,0.06497864662709647
476.136,0.06781935383512226
476.87,0.06980295082660254
477.604,0.0708168973469313
478.338,0.07136498222982145
479.072,0.07244522594182182
479.806,0.07494347990948341
480.54,0.0789241060586164
481.273,0.08358595480791857
482.007,0.08794999021820417
482.741,0.09146999352563384
483.474,0.09408163611761236
484.207,0.09621258403900837
484.94,0.09903527078459548
485.673,0.10415565634674094
486.406,0.112438579817532
487.139,0.12301956162564744
487.872,0.13358532733991663
488.605,0.141883582627636
489.337,0.14764779086181265
490.07,0.15314876481942188
490.802,0.16085479804573496
491.535,0.1701422561200726
492.267,0.17743111913929271
492.999,0.18039058782033185
493.731,0.1813659732611606
494.463,0.1854294796739628
495.195,0.19497823897857228
495.927,0.20732358801598555
496.658,0.21779033506238354
497.39,0.22402383804286
498.121,0.22705767646057834
498.853,0.22943665302451896
499.584,0.23304116712604814
500.315,0.2379946848586087
501.046,0.24310911612890157
501.777,0.24731148503473951
502.508,0.2504752521573664
503.239,0.25292384559525655
503.97,0.2548138688391477
504.7,0.25618699207483925
505.431,0.2571185901913026
506.161,0.25751265680410806
506.891,0.25696085103530725
507.622,0.2549362081725401
508.352,0.25114116070070147
509.082,0.24562301130358008
509.812,0.238352339075391
510.542,0.22877861887021209
511.271,0.21678992604144537
512.001,0.20449879994635028
512.731,0.19580229347879333
513.46,0.1931031841063801
514.189,0.19493321058265142
514.919,0.1971175086658458
515.648,0.19569943773397636
516.377,0.1887295651364715
517.106,0.17668298641630112
517.835,0.16244759504213482
518.564,0.15039945941556596
519.292,0.1438888739696459
520.021,0.14303379118774187
520.749,0.14512196874589225
521.478,0.14671580535077328
522.206,0.14507917241472376
522.934,0.13890995693272656
523.662,0.12915486298270593
524.39,0.11878248192972778
525.118,0.11069233890053443
525.846,0.10555491440642022
526.574,0.10186506099968944
527.302,0.09789119069724209
528.029,0.09322346827452821
528.757,0.08859049587376988
529.484,0.08460154358002898
530.211,0.08084090069717781
530.939,0.07631912478290669
531.666,0.070918199112099
532.393,0.06613369097014253
533.119,0.06397412481147617
533.846,0.06492701307638492
534.573,0.06714031124192942
535.3,0.06793232538493318
536.026,0.06619443587765428
536.753,0.06315440332132688
537.479,0.060772936795356204
538.205,0.0600215620359957
538.931,0.06095592258648111
539.657,0.06351479864384096
540.383,0.06739048463350501
541.109,0.07151191068845267
541.835,0.07443985372601193
542.561,0.07527179784555851
543.286,0.07386186147487561
544.012,0.0705171520355316
544.737,0.06588247636064667
545.462,0.060938567715017114
546.188,0.05678342062304805
546.913,0.05425086311027963
547.638,0.053586744460460405
548.363,0.05463606338523008
549.087,0.05717064777167307
549.812,0.06052352037260393
550.537,0.06317151741963942
551.261,0.06367541470154811
551.986,0.0621441383158391
552.71,0.06007762835145258
553.434,0.05882107900133103
554.159,0.0587592343021757
554.883,0.05964744135965427
555.607,0.06112695789484497
556.331,0.062991518101691
557.054,0.06513316517432104
557.778,0.06726186101635942
558.502,0.06884796465973082
559.225,0.06937037374783811
559.949,0.06860243269747197
560.672,0.0666562376360917
561.395,0.06379377612665216
562.118,0.06044399290009561
562.841,0.057459328294749236
563.564,0.05584781242393555
564.287,0.055802434071761206
565.01,0.05633717614442511
565.733,0.05632956299691977
566.455,0.05557028770236684
567.178,0.05451975659297985
567.9,0.05335032972519675
568.622,0.05164508800894801
569.345,0.04913664732179165
570.067,0.04657387405463496
570.789,0.045421671505409524
571.511,0.046423801977220285
572.233,0.048608333533262674
572.954,0.049993144536768695
573.676,0.04938457726612233
574.398,0.04721766398326243
575.119,0.04451928919499177
575.84,0.041805425530058886
576.562,0.03949111047917212
577.283,0.03838737977764843
578.004,0.03888151819829572
578.725,0.04033527630900719
579.446,0.041992756373805874
580.167,0.043972092436035996
580.887,0.04702426161405657
581.608,0.05177922007030099
582.329,0.058330796318365755
583.049,0.06594819030221187
583.769,0.07299097134491277
584.49,0.07760854234346294
585.21,0.07911263358086175
585.93,0.07874744540749623
586.65,0.07878563639379275
587.37,0.08068364568858345
588.09,0.08416432622725122
588.809,0.08787702087718297
589.529,0.09060691415130169
590.248,0.09212610316434484
590.968,0.09340992971105798
591.687,0.09589246081118818
592.406,0.10014243565591546
593.126,0.10543638044768061
593.845,0.1108302240988698
594.564,0.11624200515278917
595.282,0.12214180986260872
596.001,0.12854929913146032
596.72,0.13489597638244802
597.439,0.1406787008120388
598.157,0.14577419706265263
598.875,0.15010571018764343
599.594,0.15333632775468028
600.312,0.15504028904020872
601.03,0.15481203538171195
601.748,0.15186530905051074
602.466,0.14505596881766236
603.184,0.1340825610623426
603.902,0.12070179884765446
604.619,0.10820349163357666
605.337,0.0992735378019014
606.055,0.09430468223693837
606.772,0.09190624908295122
